id,start(ms),duration(ms),warps,t-occupancy,sms,size,pinned,cudaMalloc,cudaFree,direction
0,0,27.018786,0,0,0,268500996,1,0,0,1
1,27.095,26.750658,0,0,0,268500996,1,0,0,1
2,53.937,0.018656,0,0.344,0,0,0,0,0,0
3,53.959,0.01904,1,0.344,1,0,0,0,0,0
4,53.981,0.017759,1,0.344,1,0,0,0,0,0
5,54.001,0.0192,2,0.344,1,0,0,0,0,0
6,54.024,0.018272,2,0.344,1,0,0,0,0,0
7,54.045,0.018688,3,0.344,1,0,0,0,0,0
8,54.066,0.01792,3,0.344,1,0,0,0,0,0
9,54.087,0.018336,4,0.344,1,0,0,0,0,0
10,54.108,0.017984,4,0.344,1,0,0,0,0,0
11,54.13,0.018784,5,0.344,1,0,0,0,0,0
12,54.152,0.01792,5,0.344,1,0,0,0,0,0
13,54.172,0.01872,6,0.344,1,0,0,0,0,0
14,54.194,0.017728,6,0.344,1,0,0,0,0,0
15,54.215,0.018912,7,0.344,1,0,0,0,0,0
16,54.237,0.017984,7,0.344,1,0,0,0,0,0
17,54.258,0.018464,8,0.344,1,0,0,0,0,0
18,54.279,0.017664,8,0.344,1,0,0,0,0,0
19,54.3,0.018432,9,0.344,1,0,0,0,0,0
20,54.321,0.01776,9,0.344,1,0,0,0,0,0
21,54.342,0.0184,10,0.344,1,0,0,0,0,0
22,54.363,0.017792,10,0.344,1,0,0,0,0,0
23,54.383,0.018464,11,0.344,1,0,0,0,0,0
24,54.405,0.017632,11,0.344,1,0,0,0,0,0
25,54.425,0.018624,12,0.344,1,0,0,0,0,0
26,54.447,0.017856,12,0.344,1,0,0,0,0,0
27,54.468,0.018592,13,0.344,1,0,0,0,0,0
28,54.49,0.017696,13,0.344,1,0,0,0,0,0
29,54.51,0.018464,14,0.344,1,0,0,0,0,0
30,54.531,0.017824,14,0.344,1,0,0,0,0,0
31,54.552,0.018624,15,0.344,1,0,0,0,0,0
32,54.573,0.017664,15,0.344,1,0,0,0,0,0
33,54.594,0.018432,16,0.344,1,0,0,0,0,0
34,54.616,0.017888,16,0.344,1,0,0,0,0,0
35,54.637,0.018784,17,0.344,1,0,0,0,0,0
36,54.659,0.017984,17,0.344,1,0,0,0,0,0
37,54.68,0.018528,18,0.344,1,0,0,0,0,0
38,54.701,0.017824,18,0.344,1,0,0,0,0,0
39,54.722,0.018688,19,0.344,1,0,0,0,0,0
40,54.745,0.018016,19,0.344,1,0,0,0,0,0
41,54.766,0.018496,20,0.344,1,0,0,0,0,0
42,54.787,0.01776,20,0.344,1,0,0,0,0,0
43,54.807,0.018592,21,0.344,1,0,0,0,0,0
44,54.829,0.017728,21,0.344,1,0,0,0,0,0
45,54.85,0.018527,22,0.344,1,0,0,0,0,0
46,54.872,0.017888,22,0.344,1,0,0,0,0,0
47,54.892,0.018816,23,0.344,1,0,0,0,0,0
48,54.914,0.017792,23,0.344,1,0,0,0,0,0
49,54.935,0.018624,24,0.344,1,0,0,0,0,0
50,54.957,0.018176,24,0.344,1,0,0,0,0,0
51,54.978,0.018816,25,0.344,1,0,0,0,0,0
52,55.0,0.017888,25,0.344,1,0,0,0,0,0
53,55.021,0.018688,26,0.344,1,0,0,0,0,0
54,55.043,0.017984,26,0.344,1,0,0,0,0,0
55,55.064,0.018976,27,0.344,1,0,0,0,0,0
56,55.087,0.018016,27,0.344,1,0,0,0,0,0
57,55.108,0.018816,28,0.344,1,0,0,0,0,0
58,55.13,0.018016,28,0.344,1,0,0,0,0,0
59,55.151,0.018752,29,0.344,1,0,0,0,0,0
60,55.173,0.018048,29,0.344,1,0,0,0,0,0
61,55.194,0.018976,30,0.344,1,0,0,0,0,0
62,55.216,0.018112,30,0.344,1,0,0,0,0,0
63,55.237,0.0192,31,0.344,1,0,0,0,0,0
64,55.26,0.018144,31,0.344,1,0,0,0,0,0
65,55.281,0.019391,32,0.344,1,0,0,0,0,0
66,55.303,0.018368,32,0.344,1,0,0,0,0,0
67,55.324,0.019328,33,0.344,1,0,0,0,0,0
68,55.346,0.018464,33,0.344,1,0,0,0,0,0
69,55.367,0.019456,34,0.344,1,0,0,0,0,0
70,55.39,0.018528,34,0.344,1,0,0,0,0,0
71,55.412,0.019328,35,0.344,1,0,0,0,0,0
72,55.434,0.018368,35,0.344,1,0,0,0,0,0
73,55.455,0.019424,36,0.344,1,0,0,0,0,0
74,55.477,0.018592,36,0.344,1,0,0,0,0,0
75,55.5,0.019584,37,0.344,1,0,0,0,0,0
76,55.522,0.018432,37,0.344,1,0,0,0,0,0
77,55.543,0.01936,38,0.344,1,0,0,0,0,0
78,55.566,0.018752,38,0.344,1,0,0,0,0,0
79,55.587,0.019296,39,0.344,1,0,0,0,0,0
80,55.61,0.01888,39,0.344,1,0,0,0,0,0
81,55.632,0.019424,40,0.344,1,0,0,0,0,0
82,55.654,0.01872,40,0.344,1,0,0,0,0,0
83,55.675,0.019488,41,0.344,1,0,0,0,0,0
84,55.698,0.01856,41,0.344,1,0,0,0,0,0
85,55.719,0.019615,42,0.344,1,0,0,0,0,0
86,55.741,0.01872,42,0.344,1,0,0,0,0,0
87,55.762,0.019552,43,0.344,1,0,0,0,0,0
88,55.784,0.018528,43,0.344,1,0,0,0,0,0
89,55.806,0.019648,44,0.344,1,0,0,0,0,0
90,55.829,0.018816,44,0.344,1,0,0,0,0,0
91,55.851,0.019552,45,0.344,1,0,0,0,0,0
92,55.874,0.018752,45,0.344,1,0,0,0,0,0
93,55.895,0.019712,46,0.344,1,0,0,0,0,0
94,55.918,0.018816,46,0.344,1,0,0,0,0,0
95,55.941,0.019776,47,0.344,1,0,0,0,0,0
96,55.963,0.018816,47,0.344,1,0,0,0,0,0
97,55.986,0.019744,48,0.344,1,0,0,0,0,0
98,56.008,0.018912,48,0.344,1,0,0,0,0,0
99,56.03,0.019744,49,0.344,1,0,0,0,0,0
100,56.053,0.018944,49,0.344,1,0,0,0,0,0
101,56.075,0.019904,50,0.344,1,0,0,0,0,0
102,56.098,0.01872,50,0.344,1,0,0,0,0,0
103,56.12,0.019872,51,0.344,1,0,0,0,0,0
104,56.143,0.019071,51,0.344,1,0,0,0,0,0
105,56.165,0.019968,52,0.344,1,0,0,0,0,0
106,56.188,0.018944,52,0.344,1,0,0,0,0,0
107,56.211,0.019872,53,0.344,1,0,0,0,0,0
108,56.233,0.018976,53,0.344,1,0,0,0,0,0
109,56.255,0.019872,54,0.344,1,0,0,0,0,0
110,56.278,0.019168,54,0.344,1,0,0,0,0,0
111,56.301,0.019936,55,0.344,1,0,0,0,0,0
112,56.323,0.018976,55,0.344,1,0,0,0,0,0
113,56.345,0.020192,56,0.344,1,0,0,0,0,0
114,56.368,0.019168,56,0.344,1,0,0,0,0,0
115,56.39,0.019936,57,0.344,1,0,0,0,0,0
116,56.413,0.019008,57,0.344,1,0,0,0,0,0
117,56.436,0.02016,58,0.344,1,0,0,0,0,0
118,56.459,0.019072,58,0.344,1,0,0,0,0,0
119,56.481,0.02,59,0.344,1,0,0,0,0,0
120,56.504,0.019072,59,0.344,1,0,0,0,0,0
121,56.526,0.020224,60,0.344,1,0,0,0,0,0
122,56.549,0.01968,60,0.344,1,0,0,0,0,0
123,56.572,0.020959,61,0.344,1,0,0,0,0,0
124,56.596,0.01968,61,0.344,1,0,0,0,0,0
125,56.619,0.020832,62,0.344,1,0,0,0,0,0
126,56.643,0.019968,62,0.344,1,0,0,0,0,0
127,56.666,0.020832,63,0.344,1,0,0,0,0,0
128,56.69,0.01984,63,0.344,1,0,0,0,0,0
129,56.713,0.020928,64,0.344,1,0,0,0,0,0
130,56.737,0.019904,64,0.344,1,0,0,0,0,0
131,56.76,0.0208,65,0.344,2,0,0,0,0,0
132,56.784,0.019872,65,0.344,2,0,0,0,0,0
133,56.807,0.020992,66,0.344,2,0,0,0,0,0
134,56.831,0.019936,66,0.344,2,0,0,0,0,0
135,56.855,0.021344,67,0.344,2,0,0,0,0,0
136,56.878,0.019904,67,0.344,2,0,0,0,0,0
137,56.901,0.02112,68,0.344,2,0,0,0,0,0
138,56.926,0.019936,68,0.344,2,0,0,0,0,0
139,56.949,0.021184,69,0.344,2,0,0,0,0,0
140,56.973,0.019968,69,0.344,2,0,0,0,0,0
141,56.997,0.020992,70,0.344,2,0,0,0,0,0
142,57.021,0.020128,70,0.344,2,0,0,0,0,0
143,57.043,0.021472,71,0.344,2,0,0,0,0,0
144,57.068,0.020192,71,0.344,2,0,0,0,0,0
145,57.091,0.021728,72,0.344,2,0,0,0,0,0
146,57.116,0.020384,72,0.344,2,0,0,0,0,0
147,57.14,0.021056,73,0.344,2,0,0,0,0,0
148,57.164,0.020416,73,0.344,2,0,0,0,0,0
149,57.187,0.021248,74,0.344,2,0,0,0,0,0
150,57.211,0.02048,74,0.344,2,0,0,0,0,0
151,57.235,0.02144,75,0.344,2,0,0,0,0,0
152,57.259,0.02032,75,0.344,2,0,0,0,0,0
153,57.282,0.021536,76,0.344,2,0,0,0,0,0
154,57.307,0.020288,76,0.344,2,0,0,0,0,0
155,57.33,0.021216,77,0.344,2,0,0,0,0,0
156,57.354,0.020608,77,0.344,2,0,0,0,0,0
157,57.378,0.02144,78,0.344,2,0,0,0,0,0
158,57.402,0.02048,78,0.344,2,0,0,0,0,0
159,57.426,0.021408,79,0.344,2,0,0,0,0,0
160,57.45,0.020703,79,0.344,2,0,0,0,0,0
161,57.474,0.021536,80,0.344,2,0,0,0,0,0
162,57.498,0.020384,80,0.344,2,0,0,0,0,0
163,57.521,0.02144,81,0.344,2,0,0,0,0,0
164,57.545,0.020704,81,0.344,2,0,0,0,0,0
165,57.57,0.021632,82,0.344,2,0,0,0,0,0
166,57.594,0.020416,82,0.344,2,0,0,0,0,0
167,57.617,0.021984,83,0.344,2,0,0,0,0,0
168,57.642,0.020224,83,0.344,2,0,0,0,0,0
169,57.665,0.02192,84,0.344,2,0,0,0,0,0
170,57.69,0.020704,84,0.344,2,0,0,0,0,0
171,57.714,0.02176,85,0.344,2,0,0,0,0,0
172,57.739,0.020768,85,0.344,2,0,0,0,0,0
173,57.762,0.021824,86,0.344,2,0,0,0,0,0
174,57.786,0.020768,86,0.344,2,0,0,0,0,0
175,57.811,0.021952,87,0.344,2,0,0,0,0,0
176,57.836,0.020864,87,0.344,2,0,0,0,0,0
177,57.859,0.02224,88,0.344,2,0,0,0,0,0
178,57.884,0.020832,88,0.344,2,0,0,0,0,0
179,57.908,0.02192,89,0.344,2,0,0,0,0,0
180,57.933,0.021024,89,0.344,2,0,0,0,0,0
181,57.957,0.021984,90,0.344,2,0,0,0,0,0
182,57.983,0.021312,90,0.344,2,0,0,0,0,0
183,58.006,0.022688,91,0.344,2,0,0,0,0,0
184,58.032,0.021408,91,0.344,2,0,0,0,0,0
185,58.056,0.022592,92,0.344,2,0,0,0,0,0
186,58.082,0.021408,92,0.344,2,0,0,0,0,0
187,58.106,0.022752,93,0.344,2,0,0,0,0,0
188,58.132,0.021568,93,0.344,2,0,0,0,0,0
189,58.156,0.022816,94,0.344,2,0,0,0,0,0
190,58.182,0.021536,94,0.344,2,0,0,0,0,0
191,58.206,0.02272,95,0.344,2,0,0,0,0,0
192,58.232,0.021888,95,0.344,2,0,0,0,0,0
193,58.257,0.023264,96,0.344,2,0,0,0,0,0
194,58.283,0.021856,96,0.344,2,0,0,0,0,0
195,58.307,0.022815,97,0.344,2,0,0,0,0,0
196,58.333,0.022048,97,0.344,2,0,0,0,0,0
197,58.358,0.023072,98,0.344,2,0,0,0,0,0
198,58.385,0.021792,98,0.344,2,0,0,0,0,0
199,58.41,0.023232,99,0.344,2,0,0,0,0,0
200,58.436,0.022176,99,0.344,2,0,0,0,0,0
201,58.462,0.023392,100,0.344,2,0,0,0,0,0
202,58.488,0.021952,100,0.344,2,0,0,0,0,0
203,58.513,0.0232,101,0.344,2,0,0,0,0,0
204,58.539,0.021952,101,0.344,2,0,0,0,0,0
205,58.565,0.023456,102,0.344,2,0,0,0,0,0
206,58.591,0.022144,102,0.344,2,0,0,0,0,0
207,58.616,0.023264,103,0.344,2,0,0,0,0,0
208,58.642,0.022048,103,0.344,2,0,0,0,0,0
209,58.668,0.023456,104,0.344,2,0,0,0,0,0
210,58.694,0.022144,104,0.344,2,0,0,0,0,0
211,58.719,0.0232,105,0.344,2,0,0,0,0,0
212,58.745,0.022175,105,0.344,2,0,0,0,0,0
213,58.77,0.023584,106,0.344,2,0,0,0,0,0
214,58.797,0.022208,106,0.344,2,0,0,0,0,0
215,58.822,0.023296,107,0.344,2,0,0,0,0,0
216,58.848,0.02208,107,0.344,2,0,0,0,0,0
217,58.874,0.02368,108,0.344,2,0,0,0,0,0
218,58.9,0.022272,108,0.344,2,0,0,0,0,0
219,58.925,0.023648,109,0.344,2,0,0,0,0,0
220,58.952,0.022368,109,0.344,2,0,0,0,0,0
221,58.977,0.023968,110,0.344,2,0,0,0,0,0
222,59.004,0.022464,110,0.344,2,0,0,0,0,0
223,59.03,0.023584,111,0.344,2,0,0,0,0,0
224,59.057,0.022752,111,0.344,2,0,0,0,0,0
225,59.082,0.024288,112,0.344,2,0,0,0,0,0
226,59.109,0.022496,112,0.344,2,0,0,0,0,0
227,59.135,0.023488,113,0.344,2,0,0,0,0,0
228,59.161,0.022495,113,0.344,2,0,0,0,0,0
229,59.186,0.024064,114,0.344,2,0,0,0,0,0
230,59.214,0.022848,114,0.344,2,0,0,0,0,0
231,59.24,0.023648,115,0.344,2,0,0,0,0,0
232,59.267,0.022304,115,0.344,2,0,0,0,0,0
233,59.292,0.024192,116,0.344,2,0,0,0,0,0
234,59.319,0.022592,116,0.344,2,0,0,0,0,0
235,59.345,0.024064,117,0.344,2,0,0,0,0,0
236,59.372,0.022656,117,0.344,2,0,0,0,0,0
237,59.398,0.024352,118,0.344,2,0,0,0,0,0
238,59.426,0.022656,118,0.344,2,0,0,0,0,0
239,59.451,0.023712,119,0.344,2,0,0,0,0,0
240,59.479,0.022784,119,0.344,2,0,0,0,0,0
241,59.504,0.025184,120,0.344,2,0,0,0,0,0
242,59.532,0.037568,120,0.344,2,0,0,0,0,0
243,59.573,0.039519,121,0.344,2,0,0,0,0,0
244,59.615,0.037344,121,0.344,2,0,0,0,0,0
245,59.655,0.040032,122,0.344,2,0,0,0,0,0
246,59.699,0.037888,122,0.344,2,0,0,0,0,0
247,59.74,0.039712,123,0.344,2,0,0,0,0,0
248,59.783,0.037664,123,0.344,2,0,0,0,0,0
249,59.824,0.04192,124,0.344,2,0,0,0,0,0
250,59.869,0.037984,124,0.344,2,0,0,0,0,0
251,59.91,0.039488,125,0.344,2,0,0,0,0,0
252,59.953,0.038144,125,0.344,2,0,0,0,0,0
253,59.994,0.040224,126,0.344,2,0,0,0,0,0
254,60.037,0.037919,126,0.344,2,0,0,0,0,0
255,60.078,0.039648,127,0.344,2,0,0,0,0,0
256,60.121,0.038464,127,0.344,2,0,0,0,0,0
257,60.163,0.04144,128,0.344,2,0,0,0,0,0
258,60.208,0.038368,128,0.344,2,0,0,0,0,0
259,60.249,0.039936,129,0.344,3,0,0,0,0,0
260,60.291,0.038592,129,0.344,3,0,0,0,0,0
261,60.333,0.040768,130,0.344,3,0,0,0,0,0
262,60.377,0.038592,130,0.344,3,0,0,0,0,0
263,60.418,0.040224,131,0.344,3,0,0,0,0,0
264,60.462,0.038495,131,0.344,3,0,0,0,0,0
265,60.503,0.041888,132,0.344,3,0,0,0,0,0
266,60.549,0.038496,132,0.344,3,0,0,0,0,0
267,60.59,0.04048,133,0.344,3,0,0,0,0,0
268,60.634,0.038592,133,0.344,3,0,0,0,0,0
269,60.676,0.040768,134,0.344,3,0,0,0,0,0
270,60.72,0.039104,134,0.344,3,0,0,0,0,0
271,60.763,0.040608,135,0.344,3,0,0,0,0,0
272,60.806,0.03856,135,0.344,3,0,0,0,0,0
273,60.848,0.042752,136,0.344,3,0,0,0,0,0
274,60.894,0.038655,136,0.344,3,0,0,0,0,0
275,60.935,0.040672,137,0.344,3,0,0,0,0,0
276,60.979,0.038848,137,0.344,3,0,0,0,0,0
277,61.02,0.041216,138,0.344,3,0,0,0,0,0
278,61.064,0.039168,138,0.344,3,0,0,0,0,0
279,61.106,0.040768,139,0.344,3,0,0,0,0,0
280,61.15,0.03888,139,0.344,3,0,0,0,0,0
281,61.191,0.043776,140,0.344,3,0,0,0,0,0
282,61.238,0.039168,140,0.344,3,0,0,0,0,0
283,61.281,0.04096,141,0.344,3,0,0,0,0,0
284,61.324,0.039135,141,0.344,3,0,0,0,0,0
285,61.367,0.04144,142,0.344,3,0,0,0,0,0
286,61.411,0.039136,142,0.344,3,0,0,0,0,0
287,61.454,0.041216,143,0.344,3,0,0,0,0,0
288,61.498,0.039232,143,0.344,3,0,0,0,0,0
289,61.54,0.044192,144,0.344,3,0,0,0,0,0
290,61.587,0.03904,144,0.344,3,0,0,0,0,0
291,61.63,0.040928,145,0.344,3,0,0,0,0,0
292,61.675,0.039392,145,0.344,3,0,0,0,0,0
293,61.717,0.041792,146,0.344,3,0,0,0,0,0
294,61.762,0.039711,146,0.344,3,0,0,0,0,0
295,61.805,0.04176,147,0.344,3,0,0,0,0,0
296,61.85,0.03952,147,0.344,3,0,0,0,0,0
297,61.892,0.043296,148,0.344,3,0,0,0,0,0
298,61.939,0.03984,148,0.344,3,0,0,0,0,0
299,61.982,0.041344,149,0.344,3,0,0,0,0,0
300,62.026,0.039712,149,0.344,3,0,0,0,0,0
301,62.069,0.041888,150,0.344,3,0,0,0,0,0
302,62.114,0.039904,150,0.344,3,0,0,0,0,0
303,62.157,0.041696,151,0.344,3,0,0,0,0,0
304,62.202,0.039551,151,0.344,3,0,0,0,0,0
305,62.245,0.04416,152,0.344,3,0,0,0,0,0
306,62.292,0.039872,152,0.344,3,0,0,0,0,0
307,62.335,0.041856,153,0.344,3,0,0,0,0,0
308,62.379,0.040512,153,0.344,3,0,0,0,0,0
309,62.423,0.042304,154,0.344,3,0,0,0,0,0
310,62.469,0.039808,154,0.344,3,0,0,0,0,0
311,62.512,0.0416,155,0.344,3,0,0,0,0,0
312,62.557,0.040768,155,0.344,3,0,0,0,0,0
313,62.6,0.043743,156,0.344,3,0,0,0,0,0
314,62.647,0.03968,156,0.344,3,0,0,0,0,0
315,62.689,0.041856,157,0.344,3,0,0,0,0,0
316,62.733,0.040288,157,0.344,3,0,0,0,0,0
317,62.777,0.042656,158,0.344,3,0,0,0,0,0
318,62.823,0.040192,158,0.344,3,0,0,0,0,0
319,62.866,0.041536,159,0.344,3,0,0,0,0,0
320,62.911,0.040128,159,0.344,3,0,0,0,0,0
321,62.954,0.043904,160,0.344,3,0,0,0,0,0
322,63.001,0.039776,160,0.344,3,0,0,0,0,0
323,63.044,0.041759,161,0.344,3,0,0,0,0,0
324,63.089,0.039904,161,0.344,3,0,0,0,0,0
325,63.132,0.042912,162,0.344,3,0,0,0,0,0
326,63.177,0.040128,162,0.344,3,0,0,0,0,0
327,63.221,0.042016,163,0.344,3,0,0,0,0,0
328,63.265,0.040992,163,0.344,3,0,0,0,0,0
329,63.309,0.044128,164,0.344,3,0,0,0,0,0
330,63.356,0.04064,164,0.344,3,0,0,0,0,0
331,63.4,0.042112,165,0.344,3,0,0,0,0,0
332,63.445,0.040544,165,0.344,3,0,0,0,0,0
333,63.489,0.043263,166,0.344,3,0,0,0,0,0
334,63.535,0.040864,166,0.344,3,0,0,0,0,0
335,63.578,0.043392,167,0.344,3,0,0,0,0,0
336,63.624,0.04096,167,0.344,3,0,0,0,0,0
337,63.668,0.0448,168,0.344,3,0,0,0,0,0
338,63.716,0.041088,168,0.344,3,0,0,0,0,0
339,63.76,0.04288,169,0.344,3,0,0,0,0,0
340,63.806,0.040704,169,0.344,3,0,0,0,0,0
341,63.85,0.043392,170,0.344,3,0,0,0,0,0
342,63.897,0.040735,170,0.344,3,0,0,0,0,0
343,63.94,0.042208,171,0.344,3,0,0,0,0,0
344,63.986,0.04048,171,0.344,3,0,0,0,0,0
345,64.029,0.04496,172,0.344,3,0,0,0,0,0
346,64.077,0.040416,172,0.344,3,0,0,0,0,0
347,64.121,0.042112,173,0.344,3,0,0,0,0,0
348,64.166,0.040736,173,0.344,3,0,0,0,0,0
349,64.21,0.043136,174,0.344,3,0,0,0,0,0
350,64.256,0.040416,174,0.344,3,0,0,0,0,0
351,64.299,0.04224,175,0.344,3,0,0,0,0,0
352,64.345,0.041535,175,0.344,3,0,0,0,0,0
353,64.389,0.045216,176,0.344,3,0,0,0,0,0
354,64.437,0.041408,176,0.344,3,0,0,0,0,0
355,64.481,0.043232,177,0.344,3,0,0,0,0,0
356,64.528,0.041248,177,0.344,3,0,0,0,0,0
357,64.572,0.044512,178,0.344,3,0,0,0,0,0
358,64.62,0.041088,178,0.344,3,0,0,0,0,0
359,64.664,0.042816,179,0.344,3,0,0,0,0,0
360,64.71,0.041408,179,0.344,3,0,0,0,0,0
361,64.755,0.045791,180,0.344,3,0,0,0,0,0
362,64.803,0.040928,180,0.344,3,0,0,0,0,0
363,64.847,0.042624,181,0.344,3,0,0,0,0,0
364,64.892,0.041536,181,0.344,3,0,0,0,0,0
365,64.937,0.043424,182,0.344,3,0,0,0,0,0
366,64.983,0.041056,182,0.344,3,0,0,0,0,0
367,65.027,0.043168,183,0.344,3,0,0,0,0,0
368,65.074,0.04192,183,0.344,3,0,0,0,0,0
369,65.118,0.046368,184,0.344,3,0,0,0,0,0
370,65.168,0.041216,184,0.344,3,0,0,0,0,0
371,65.212,0.042911,185,0.344,3,0,0,0,0,0
372,65.258,0.042016,185,0.344,3,0,0,0,0,0
373,65.303,0.044032,186,0.344,3,0,0,0,0,0
374,65.349,0.042048,186,0.344,3,0,0,0,0,0
375,65.394,0.043904,187,0.344,3,0,0,0,0,0
376,65.441,0.041632,187,0.344,3,0,0,0,0,0
377,65.487,0.046912,188,0.344,3,0,0,0,0,0
378,65.536,0.041536,188,0.344,3,0,0,0,0,0
379,65.581,0.043136,189,0.344,3,0,0,0,0,0
380,65.627,0.041951,189,0.344,3,0,0,0,0,0
381,65.672,0.044928,190,0.344,3,0,0,0,0,0
382,65.72,0.041632,190,0.344,3,0,0,0,0,0
383,65.764,0.043712,191,0.344,3,0,0,0,0,0
384,65.811,0.041824,191,0.344,3,0,0,0,0,0
385,65.856,0.046432,192,0.344,3,0,0,0,0,0
386,65.906,0.04256,192,0.344,3,0,0,0,0,0
387,65.951,0.043744,193,0.344,4,0,0,0,0,0
388,65.998,0.04176,193,0.344,4,0,0,0,0,0
389,66.042,0.044384,194,0.344,4,0,0,0,0,0
390,66.089,0.041471,194,0.344,4,0,0,0,0,0
391,66.133,0.043936,195,0.344,4,0,0,0,0,0
392,66.181,0.042464,195,0.344,4,0,0,0,0,0
393,66.226,0.046976,196,0.344,4,0,0,0,0,0
394,66.276,0.041792,196,0.344,4,0,0,0,0,0
395,66.321,0.043616,197,0.344,4,0,0,0,0,0
396,66.368,0.042592,197,0.344,4,0,0,0,0,0
397,66.414,0.044672,198,0.344,4,0,0,0,0,0
398,66.462,0.042016,198,0.344,4,0,0,0,0,0
399,66.507,0.044031,199,0.344,4,0,0,0,0,0
400,66.554,0.04208,199,0.344,4,0,0,0,0,0
401,66.599,0.047264,200,0.344,4,0,0,0,0,0
402,66.649,0.0416,200,0.344,4,0,0,0,0,0
403,66.694,0.044192,201,0.344,4,0,0,0,0,0
404,66.742,0.042336,201,0.344,4,0,0,0,0,0
405,66.786,0.04544,202,0.344,4,0,0,0,0,0
406,66.835,0.04256,202,0.344,4,0,0,0,0,0
407,66.88,0.043968,203,0.344,4,0,0,0,0,0
408,66.927,0.042463,203,0.344,4,0,0,0,0,0
409,66.972,0.047712,204,0.344,4,0,0,0,0,0
410,67.023,0.042496,204,0.344,4,0,0,0,0,0
411,67.068,0.044352,205,0.344,4,0,0,0,0,0
412,67.115,0.042176,205,0.344,4,0,0,0,0,0
413,67.16,0.045024,206,0.344,4,0,0,0,0,0
414,67.208,0.042624,206,0.344,4,0,0,0,0,0
415,67.253,0.044032,207,0.344,4,0,0,0,0,0
416,67.3,0.042848,207,0.344,4,0,0,0,0,0
417,67.346,0.048191,208,0.344,4,0,0,0,0,0
418,67.397,0.042912,208,0.344,4,0,0,0,0,0
419,67.443,0.044896,209,0.344,4,0,0,0,0,0
420,67.492,0.042656,209,0.344,4,0,0,0,0,0
421,67.537,0.045664,210,0.344,4,0,0,0,0,0
422,67.586,0.043168,210,0.344,4,0,0,0,0,0
423,67.632,0.04496,211,0.344,4,0,0,0,0,0
424,67.679,0.043072,211,0.344,4,0,0,0,0,0
425,67.726,0.048256,212,0.344,4,0,0,0,0,0
426,67.777,0.043232,212,0.344,4,0,0,0,0,0
427,67.823,0.04496,213,0.344,4,0,0,0,0,0
428,67.871,0.043616,213,0.344,4,0,0,0,0,0
429,67.918,0.045984,214,0.344,4,0,0,0,0,0
430,67.967,0.042912,214,0.344,4,0,0,0,0,0
431,68.013,0.044704,215,0.344,4,0,0,0,0,0
432,68.061,0.043072,215,0.344,4,0,0,0,0,0
433,68.106,0.04864,216,0.344,4,0,0,0,0,0
434,68.159,0.0432,216,0.344,4,0,0,0,0,0
435,68.205,0.044864,217,0.344,4,0,0,0,0,0
436,68.253,0.042879,217,0.344,4,0,0,0,0,0
437,68.299,0.045952,218,0.344,4,0,0,0,0,0
438,68.348,0.043488,218,0.344,4,0,0,0,0,0
439,68.394,0.04544,219,0.344,4,0,0,0,0,0
440,68.442,0.04448,219,0.344,4,0,0,0,0,0
441,68.491,0.048768,220,0.344,4,0,0,0,0,0
442,68.542,0.043296,220,0.344,4,0,0,0,0,0
443,68.588,0.045088,221,0.344,4,0,0,0,0,0
444,68.636,0.043744,221,0.344,4,0,0,0,0,0
445,68.683,0.046495,222,0.344,4,0,0,0,0,0
446,68.733,0.043136,222,0.344,4,0,0,0,0,0
447,68.779,0.045568,223,0.344,4,0,0,0,0,0
448,68.827,0.043296,223,0.344,4,0,0,0,0,0
449,68.874,0.049056,224,0.344,4,0,0,0,0,0
450,68.926,0.043904,224,0.344,4,0,0,0,0,0
451,68.972,0.045568,225,0.344,4,0,0,0,0,0
452,69.021,0.04368,225,0.344,4,0,0,0,0,0
453,69.068,0.04656,226,0.344,4,0,0,0,0,0
454,69.118,0.043519,226,0.344,4,0,0,0,0,0
455,69.164,0.045952,227,0.344,4,0,0,0,0,0
456,69.213,0.043936,227,0.344,4,0,0,0,0,0
457,69.259,0.049408,228,0.344,4,0,0,0,0,0
458,69.311,0.043616,228,0.344,4,0,0,0,0,0
459,69.358,0.045536,229,0.344,4,0,0,0,0,0
460,69.407,0.044192,229,0.344,4,0,0,0,0,0
461,69.454,0.047424,230,0.344,4,0,0,0,0,0
462,69.504,0.04432,230,0.344,4,0,0,0,0,0
463,69.552,0.04592,231,0.344,4,0,0,0,0,0
464,69.601,0.044576,231,0.344,4,0,0,0,0,0
465,69.648,0.049408,232,0.344,4,0,0,0,0,0
466,69.701,0.044288,232,0.344,4,0,0,0,0,0
467,69.749,0.045696,233,0.344,4,0,0,0,0,0
468,69.797,0.044352,233,0.344,4,0,0,0,0,0
469,69.844,0.047008,234,0.344,4,0,0,0,0,0
470,69.895,0.045056,234,0.344,4,0,0,0,0,0
471,69.943,0.046335,235,0.344,4,0,0,0,0,0
472,69.993,0.045024,235,0.344,4,0,0,0,0,0
